#Parameters = {d=500; p=50; phi=0; r1=40; r2=15; t=0.2; theta=0; w=2.5; Mesh Pass=3}
#"Frequency / THz"	"S2,1 (3) [Magnitude / dB]"
#---------------------------------------------
0.50000000000000	-2.2574566262793
0.50449997186661	-2.2838688037192
0.50900000333786	-2.3101003402414
0.51349997520447	-2.3359988441766
0.51800000667572	-2.3614479132651
0.52249997854233	-2.3863701708076
0.52700001001358	-2.4107283505212
0.53149998188019	-2.4345295141360
0.53600001335144	-2.4578258117286
0.54049998521805	-2.4807124064020
0.54500001668930	-2.5033232284311
0.54949998855591	-2.5258319293124
0.55400002002716	-2.5484422942631
0.55849999189377	-2.5713872704053
0.56300002336502	-2.5949162691825
0.56749999523163	-2.6192992097260
0.57200002670288	-2.6448097636865
0.57649999856949	-2.6717222511898
0.58099997043610	-2.7003043796808
0.58550000190735	-2.7308172336965
0.58999997377396	-2.7635007423709
0.59450000524521	-2.7985769196302
0.59899997711182	-2.8362423393995
0.60350000858307	-2.8766624661933
0.60799998044968	-2.9199765820251
0.61250001192093	-2.9662951476719
0.61699998378754	-3.0156925778638
0.62150001525879	-3.0682220227450
0.62599998712540	-3.1238993687901
0.63050001859665	-3.1827252879206
0.63499999046326	-3.2446721433188
0.63950002193451	-3.3097028349898
0.64399999380112	-3.3777644281210
0.64850002527237	-3.4488014248138
0.65299999713898	-3.5227630945290
0.65750002861023	-3.5996038335865
0.66200000047684	-3.6792978949468
0.66649997234344	-3.7618448308021
0.67100000381470	-3.8472782249958
0.67549997568130	-3.9356706082362
0.68000000715256	-4.0271398659577
0.68449997901917	-4.1218655340108
0.68900001049042	-4.2200830454739
0.69349998235703	-4.3220975939536
0.69800001382828	-4.4282833107111
0.70249998569489	-4.5390904688582
0.70700001716614	-4.6550483983433
0.71149998903275	-4.7767683967724
0.71600002050400	-4.9049432187555
0.72049999237061	-5.0403492879366
0.72500002384186	-5.1838526235652
0.72949999570847	-5.3364062071375
0.73400002717972	-5.4990548278741
0.73849999904633	-5.6729408110167
0.74299997091293	-5.8593089677987
0.74750000238419	-6.0595098951316
0.75199997425079	-6.2750205107135
0.75650000572205	-6.5074533607463
0.76099997758865	-6.7585744679580
0.76550000905991	-7.0303326540969
0.76999998092651	-7.3248917312485
0.77450001239777	-7.6446702092606
0.77899998426437	-7.9923967572005
0.78350001573563	-8.3711840104803
0.78799998760223	-8.7846132780695
0.79250001907349	-9.2368596236306
0.79699999094009	-9.7328437550192
0.80150002241135	-10.278454755749
0.80599999427795	-10.880819639298
0.81050002574921	-11.548714837032
0.81499999761581	-12.293099062330
0.81950002908707	-13.127884798908
0.82400000095367	-14.071012008358
0.82849997282028	-15.145910325563
0.83300000429153	-16.383308054178
0.83749997615814	-17.822643152568
0.84200000762939	-19.509140459866
0.84649997949600	-21.469102429058
0.85100001096725	-23.593095168062
0.85549998283386	-25.265911277239
0.86000001430511	-25.262169572080
0.86449998617172	-23.558144508993
0.86900001764297	-21.378388309271
0.87349998950958	-19.356186618450
0.87800002098083	-17.607425971529
0.88249999284744	-16.107095896745
0.88700002431870	-14.810031786353
0.89149999618530	-13.676663770525
0.89600002765656	-12.676137847546
0.90049999952316	-11.784955273036
0.90499997138977	-10.985151844570
0.90950000286102	-10.262827037195
0.91399997472763	-9.6070665745292
0.91850000619888	-9.0091623101856
0.92299997806549	-8.4620751637019
0.92750000953674	-7.9600234481896
0.93199998140335	-7.4982080633996
0.93650001287460	-7.0725859037664
0.94099998474121	-6.6797251771289
0.94550001621246	-6.3166701053610
0.94999998807907	-5.9808569459411
0.95450001955032	-5.6700346850895
0.95899999141693	-5.3822177623745
0.96350002288818	-5.1156293209589
0.96799999475479	-4.8686793661169
0.97250002622604	-4.6399178436565
0.97699999809265	-4.4280277748058
0.98150002956390	-4.2317994446993
0.98600000143051	-4.0501135518275
0.99049997329712	-3.8819299686458
0.99500000476837	-3.7262797190546
0.99949997663498	-3.5822555165721
1.0039999485016	-3.4489998463415
1.0084999799728	-3.3257118190806
1.0130000114441	-3.2116305593942
1.0175000429153	-3.1060404943170
1.0219999551773	-3.0082643245223
1.0264999866486	-2.9176631848956
1.0310000181198	-2.8336365895195
1.0355000495911	-2.7556210409200
1.0399999618530	-2.6830884859588
1.0444999933243	-2.6155464612436
1.0490000247955	-2.5525407960894
1.0535000562668	-2.4936535744478
1.0579999685287	-2.4385015008384
1.0625000000000	-2.3867384828789
1.0670000314713	-2.3380529662296
1.0714999437332	-2.2921687589489
1.0759999752045	-2.2488455214345
1.0805000066757	-2.2078712511060
1.0850000381470	-2.1690703675153
1.0894999504089	-2.1322915239526
1.0939999818802	-2.0974108128503
1.0985000133514	-2.0643317758552
1.1030000448227	-2.0329782458256
1.1074999570847	-2.0032921527087
1.1119999885559	-1.9752294791508
1.1165000200272	-1.9487641673518
1.1210000514984	-1.9238747254808
1.1254999637604	-1.9005526053911
1.1299999952316	-1.8787852547946
1.1345000267029	-1.8585680567857
1.1390000581741	-1.8398952269168
1.1434999704361	-1.8227575954195
1.1480000019073	-1.8071388933580
1.1525000333786	-1.7930210263499
1.1569999456406	-1.7803763677542
1.1614999771118	-1.7691704702033
1.1660000085831	-1.7593586841461
1.1705000400543	-1.7508898976258
1.1749999523163	-1.7437048549849
1.1794999837875	-1.7377345944753
1.1840000152588	-1.7329054991133
1.1885000467300	-1.7291376193165
1.1929999589920	-1.7263435182312
1.1974999904633	-1.7244372359835
1.2020000219345	-1.7233268759760
1.2065000534058	-1.7229256160012
1.2109999656677	-1.7231429749862
1.2154999971390	-1.7238966288164
1.2200000286102	-1.7251065498912
1.2244999408722	-1.7267006030764
1.2289999723434	-1.7286128733964
1.2335000038147	-1.7307888503066
1.2380000352859	-1.7331837004080
1.2424999475479	-1.7357648879508
1.2469999790192	-1.7385063294191
1.2515000104904	-1.7413992734377
1.2560000419617	-1.7444421904802
1.2604999542236	-1.7476465105411
1.2649999856949	-1.7510335943927
1.2695000171661	-1.7546322670053
1.2740000486374	-1.7584791091666
1.2784999608994	-1.7626209823966
1.2829999923706	-1.7671021747601
1.2875000238419	-1.7719800219787
1.2920000553131	-1.7773022619578
1.2964999675751	-1.7831262515721
1.3009999990463	-1.7894995056931
1.3055000305176	-1.7964721559293
1.3099999427795	-1.8040839777506
1.3144999742508	-1.8123726993254
1.3190000057220	-1.8213659234518
1.3235000371933	-1.8310851194110
1.3279999494553	-1.8415402293839
1.3324999809265	-1.8527331026627
1.3370000123978	-1.8646571534093
1.3415000438690	-1.8772941499364
1.3459999561310	-1.8906193734910
1.3504999876022	-1.9045952730120
1.3550000190735	-1.9191853595551
1.3595000505447	-1.9343386856186
1.3639999628067	-1.9500041819835
1.3684999942780	-1.9661272195355
1.3730000257492	-1.9826499572842
1.3775000572205	-1.9995150964798
1.3819999694824	-2.0166695184550
1.3865000009537	-2.0340597046120
1.3910000324249	-2.0516405771652
1.3954999446869	-2.0693725502363
1.3999999761581	-2.0872245471935
1.4045000076294	-2.1051769834743
1.4090000391006	-2.1232144845176
1.4134999513626	-2.1413401014697
1.4179999828339	-2.1595640397480
1.4225000143051	-2.1779089697263
1.4270000457764	-2.1964072765777
1.4314999580383	-2.2151025132980
1.4359999895096	-2.2340499825801
1.4405000209808	-2.2533100840751
1.4450000524521	-2.2729533177423
1.4494999647141	-2.2930535883921
1.4539999961853	-2.3136868637786
1.4585000276566	-2.3349333218225
1.4630000591278	-2.3568736894067
1.4674999713898	-2.3795830618522
1.4720000028610	-2.4031350970354
1.4765000343323	-2.4275951419072
1.4809999465942	-2.4530236119586
1.4854999780655	-2.4794672473407
1.4900000095367	-2.5069672190601
1.4945000410080	-2.5355500077323
1.4989999532700	-2.5652311085705
1.5034999847412	-2.5960122452369
1.5080000162125	-2.6278820545070
1.5125000476837	-2.6608185891484
1.5169999599457	-2.6947856681713
1.5214999914169	-2.7297400865440
1.5260000228882	-2.7656241847301
1.5305000543594	-2.8023767529923
1.5349999666214	-2.8399271637574
1.5394999980927	-2.8782065088848
1.5440000295639	-2.9171398486974
1.5484999418259	-2.9566569681157
1.5529999732971	-2.9966895406349
1.5575000047684	-3.0371800001041
1.5620000362396	-3.0780778447907
1.5664999485016	-3.1193483202266
1.5709999799728	-3.1609717339814
1.5755000114441	-3.2029432100442
1.5800000429153	-3.2452800299610
1.5844999551773	-3.2880204616001
1.5889999866486	-3.3312245198430
1.5935000181198	-3.3749750279627
1.5980000495911	-3.4193761545605
1.6024999618530	-3.4645588203811
1.6069999933243	-3.5106709564645
1.6115000247955	-3.5578820456032
1.6160000562668	-3.6063807297170
1.6204999685287	-3.6563690217784
1.6250000000000	-3.7080639679678
1.6295000314713	-3.7616940143178
1.6339999437332	-3.8174918640149
1.6384999752045	-3.8756930749865
1.6430000066757	-3.9365366963292
1.6475000381470	-4.0002579844067
1.6519999504089	-4.0670827729863
1.6564999818802	-4.1372297968964
1.6610000133514	-4.2109013056741
1.6655000448227	-4.2882870644133
1.6699999570847	-4.3695543989320
1.6744999885559	-4.4548482802281
1.6790000200272	-4.5442909073070
1.6835000514984	-4.6379754322258
1.6879999637604	-4.7359666397010
1.6924999952316	-4.8382975915308
1.6970000267029	-4.9449709279041
1.7015000581741	-5.0559506070227
1.7059999704361	-5.1711698792430
1.7105000019073	-5.2905263335641
1.7150000333786	-5.4138781207046
1.7194999456406	-5.5410548859729
1.7239999771118	-5.6718433291706
1.7285000085831	-5.8060086121696
1.7330000400543	-5.9432736640566
1.7374999523163	-6.0833459094122
1.7419999837875	-6.2258979532727
1.7465000152588	-6.3705916562343
1.7510000467300	-6.5170723256235
1.7554999589920	-6.6649755944040
1.7599999904633	-6.8139399045343
1.7645000219345	-6.9636083683099
1.7690000534058	-7.1136380141704
1.7734999656677	-7.2637110309681
1.7779999971390	-7.4135352569846
1.7825000286102	-7.5628630325643
1.7869999408722	-7.7114881365934
1.7914999723434	-7.8592576112505
1.7960000038147	-8.0060766939527
1.8005000352859	-8.1519105846638
1.8049999475479	-8.2967888260898
1.8094999790192	-8.4408039261409
1.8140000104904	-8.5841114854855
1.8185000419617	-8.7269272620023
1.8229999542236	-8.8695215592084
1.8274999856949	-9.0122153422178
1.8320000171661	-9.1553717255239
1.8365000486374	-9.2993849993679
1.8409999608994	-9.4446796528051
1.8454999923706	-9.5916912064837
1.8500000238419	-9.7408664689579
1.8545000553131	-9.8926499114911
1.8589999675751	-10.047471913216
1.8634999990463	-10.205748258572
1.8680000305176	-10.367866545482
1.8724999427795	-10.534182836207
1.8769999742508	-10.705009884539
1.8815000057220	-10.880620986420
1.8860000371933	-11.061235712429
1.8904999494553	-11.247025361412
1.8949999809265	-11.438099614217
1.8995000123978	-11.634515450052
1.9040000438690	-11.836265981228
1.9084999561310	-12.043284419614
1.9129999876022	-12.255444966299
1.9175000190735	-12.472560700042
1.9220000505447	-12.694381211557
1.9264999628067	-12.920605205783
1.9309999942780	-13.150876624641
1.9355000257492	-13.384786996237
1.9400000572205	-13.621885193015
1.9444999694824	-13.861677961321
1.9490000009537	-14.103635731140
1.9535000324249	-14.347198714602
1.9579999446869	-14.591782621628
1.9624999761581	-14.836780908983
1.9670000076294	-15.081563950143
1.9715000391006	-15.325483074946
1.9759999513626	-15.567870633630
1.9804999828339	-15.808022348282
1.9850000143051	-16.045203978202
1.9895000457764	-16.278624838212
1.9939999580383	-16.507425334254
1.9984999895096	-16.730662010399
2.0030000209808	-16.947278306127
2.0074999332428	-17.156079300691
2.0120000839233	-17.355725465434
2.0164999961853	-17.544703735051
2.0209999084473	-17.721325519473
2.0255000591278	-17.883735940100
2.0299999713898	-18.029928037135
2.0344998836517	-18.157797796462
2.0390000343323	-18.265203330759
2.0434999465942	-18.350055455158
2.0480000972748	-18.410420192553
2.0525000095367	-18.444647698218
2.0569999217987	-18.451473402390
2.0615000724792	-18.430135223259
2.0659999847412	-18.380440200881
2.0704998970032	-18.302806171344
2.0750000476837	-18.198250657817
2.0794999599457	-18.068345810219
2.0840001106262	-17.915129217769
2.0885000228882	-17.740984576723
2.0929999351501	-17.548529385506
2.0975000858307	-17.340479218895
2.1019999980927	-17.119545125655
2.1064999103546	-16.888334671242
2.1110000610352	-16.649283925820
2.1154999732971	-16.404606414122
2.1199998855591	-16.156271262884
2.1245000362396	-15.905985933995
2.1289999485016	-15.655195072541
2.1335000991821	-15.405101486998
2.1380000114441	-15.156675240673
2.1424999237061	-14.910681173958
2.1470000743866	-14.667704299421
2.1514999866486	-14.428160892283
2.1559998989105	-14.192341489045
2.1605000495911	-13.960418171662
2.1649999618530	-13.732472823450
2.1695001125336	-13.508516536482
2.1740000247955	-13.288502785896
2.1784999370575	-13.072348461024
2.1830000877380	-12.859944065514
2.1875000000000	-12.651164768980
2.1919999122620	-12.445882189521
2.1965000629425	-12.243973894585
2.2009999752045	-12.045325587407
2.2054998874664	-11.849837744918
2.2100000381470	-11.657429285314
2.2144999504089	-11.468039437996
2.2190001010895	-11.281625818728
2.2235000133514	-11.098162764518
2.2279999256134	-10.917647668819
2.2325000762939	-10.740086136822
2.2369999885559	-10.565497228583
2.2414999008179	-10.393906472453
2.2460000514984	-10.225342389811
2.2504999637604	-10.059835413505
2.2550001144409	-9.8974065063664
2.2595000267029	-9.7380733020331
2.2639999389648	-9.5818382468490
2.2685000896454	-9.4286904405854
2.2730000019073	-9.2786043097700
2.2774999141693	-9.1315368770176
2.2820000648499	-8.9874215263010
2.2864999771118	-8.8461801572982
2.2909998893738	-8.7077133350572
2.2955000400543	-8.5719022795708
2.2999999523163	-8.4386185096765
2.3045001029968	-8.3077179039875
2.3090000152588	-8.1790537273559
2.3134999275208	-8.0524675668549
2.3180000782013	-7.9278092365789
2.3224999904633	-7.8049267816652
2.3269999027252	-7.6836780676197
2.3315000534058	-7.5639384249533
2.3359999656677	-7.4455999603938
2.3405001163483	-7.3285770304784
2.3450000286102	-7.2128096386848
2.3494999408722	-7.0982723579751
2.3540000915527	-6.9849652940523
2.3585000038147	-6.8729271109898
2.3629999160767	-6.7622274669507
2.3675000667572	-6.6529737880107
2.3719999790192	-6.5453034380637
2.3764998912811	-6.4393860589490
2.3810000419617	-6.3354187309291
2.3854999542236	-6.2336252370306
2.3900001049042	-6.1342467632504
2.3945000171661	-6.0375417000030
2.3989999294281	-5.9437788131044
2.4035000801086	-5.8532319924775
2.4079999923706	-5.7661750293602
2.4124999046326	-5.6828726209955
2.4170000553131	-5.6035872082094
2.4214999675751	-5.5285563364642
2.4260001182556	-5.4580014741313
2.4305000305176	-5.3921157122162
2.4349999427795	-5.3310634714559
2.4395000934601	-5.2749729361673
2.4440000057220	-5.2239395949383
2.4484999179840	-5.1780120986525
2.4530000686646	-5.1371999296238
2.4574999809265	-5.1014620935129
2.4619998931885	-5.0707140782121
2.4665000438690	-5.0448180059314
2.4709999561310	-5.0235853676053
2.4755001068115	-5.0067806522169
2.4800000190735	-4.9941172842436
2.4844999313354	-4.9852606118247
2.4890000820160	-4.9798245325529
2.4934999942780	-4.9773903009591
2.4979999065399	-4.9774935060928
2.5025000572205	-4.9796463533462
2.5069999694824	-4.9833280019588
2.5114998817444	-4.9880085785356
2.5160000324249	-4.9931522330556
2.5204999446869	-4.9982254260739
2.5250000953674	-5.0027136795602
2.5295000076294	-5.0061322858336
2.5339999198914	-5.0080354244265
2.5385000705719	-5.0080306691471
2.5429999828339	-5.0057893245340
2.5474998950958	-5.0010537144579
2.5520000457764	-4.9936464103466
2.5564999580383	-4.9834732592420
2.5610001087189	-4.9705260652294
2.5655000209808	-4.9548813961200
2.5699999332428	-4.9366990523179
2.5745000839233	-4.9162120623813
2.5789999961853	-4.8937177560584
2.5834999084473	-4.8695711853854
2.5880000591278	-4.8441749984489
2.5924999713898	-4.8179513372268
2.5969998836517	-4.7913463268323
2.6015000343323	-4.7648115943872
2.6059999465942	-4.7387836475266
2.6105000972748	-4.7136751324779
2.6150000095367	-4.6898721817500
2.6194999217987	-4.6677123493600
2.6240000724792	-4.6474838499868
2.6284999847412	-4.6294149246641
2.6329998970032	-4.6136701925151
2.6375000476837	-4.6003500686310
2.6419999599457	-4.5894825767703
2.6465001106262	-4.5810244019482
2.6510000228882	-4.5748674214047
2.6554999351501	-4.5708354613281
2.6600000858307	-4.5686880204049
2.6644999980927	-4.5681336349780
2.6689999103546	-4.5688308290680
2.6735000610352	-4.5703979522252
2.6779999732971	-4.5724256361754
2.6824998855591	-4.5744928877327
2.6870000362396	-4.5761700334403
2.6914999485016	-4.5770409813778
2.6960000991821	-4.5767129498760
2.7005000114441	-4.5748338012461
2.7049999237061	-4.5711000867697
2.7095000743866	-4.5652743792125
2.7139999866486	-4.5571889828459
2.7184998989105	-4.5467574778073
2.7230000495911	-4.5339731922899
2.7274999618530	-4.5189192923934
2.7320001125336	-4.5017575708825
2.7365000247955	-4.4827277766369
2.7409999370575	-4.4621400399069
2.7455000877380	-4.4403615813272
2.7500000000000	-4.4178038050169
